Data from Transmission_12-19-49-045.txt Node
Date: Thu Aug 01 12:19:49 CEST 2019
User: Ocean Optics
Spectrometer: QEP02356
Trigger mode: 4
Integration Time (sec): 1.000000E-1
Scans to average: 100
Electric dark correction enabled: true
Nonlinearity correction enabled: true
Boxcar width: 0
XAxis mode: Wavelengths
Number of Pixels in Spectrum: 1044
>>>>>Begin Spectral Data<<<<<
194.596	100.86
195.4	47.95
196.203	76.51
197.007	98.47
197.81	32.92
198.613	32.72
199.417	33.29
200.22	32.64
201.023	32.32
201.826	30.83
202.629	29.56
203.432	29.29
204.235	27.79
205.038	26.57
205.84	26.02
206.643	25.89
207.445	26.71
208.248	27.35
209.05	27.94
209.853	27.36
210.655	26.34
211.457	25.36
212.259	24.78
213.061	24.16
213.863	23.39
214.665	23.12
215.467	22.36
216.269	20.94
217.07	19.27
217.872	17.82
218.674	16.82
219.475	15.88
220.277	14.6
221.078	12.97
221.879	11.48
222.68	10.46
223.481	10.22
224.283	9.8
225.084	9.14
225.884	7.87
226.685	6.51
227.486	5.28
228.287	3.32
229.087	1.97
229.888	1.63
230.688	2.4
231.489	3.03
232.289	3.43
233.089	4.3
233.89	4.04
234.69	3.31
235.49	3.43
236.29	3.56
237.09	3.56
237.89	3.65
238.689	3.56
239.489	3.31
240.289	2.9
241.088	2.31
241.888	1.79
242.687	1.34
243.486	1.23
244.286	1.59
245.085	1.98
245.884	1.79
246.683	1.13
247.482	0.67
248.281	0.65
249.08	0.89
249.878	1.15
250.677	1.45
251.476	1.39
252.274	1.04
253.073	0.86
253.871	1.08
254.67	1.27
255.468	1.27
256.266	1.24
257.064	1.13
257.862	0.99
258.66	0.82
259.458	0.61
260.256	0.37
261.054	0.33
261.851	0.51
262.649	0.7
263.446	0.7
264.244	0.78
265.041	0.84
265.839	0.79
266.636	0.68
267.433	0.62
268.23	0.59
269.027	0.62
269.824	0.66
270.621	0.66
271.418	0.6
272.215	0.55
273.011	0.51
273.808	0.5
274.604	0.56
275.401	0.62
276.197	0.62
276.994	0.62
277.79	0.63
278.586	0.63
279.382	0.62
280.178	0.61
280.974	0.6
281.77	0.56
282.566	0.53
283.361	0.51
284.157	0.51
284.953	0.53
285.748	0.61
286.544	0.89
287.339	1.39
288.134	1.89
288.93	2.08
289.725	2
290.52	1.74
291.315	1.47
292.11	1.26
292.905	1.11
293.699	0.99
294.494	0.93
295.289	0.9
296.083	0.86
296.878	0.84
297.672	0.83
298.467	0.85
299.261	0.89
300.055	0.94
300.849	0.92
301.643	0.85
302.437	0.75
303.231	0.63
304.025	0.54
304.819	0.45
305.612	0.43
306.406	0.41
307.2	0.39
307.993	0.39
308.786	0.36
309.58	0.34
310.373	0.32
311.166	0.31
311.959	0.3
312.752	0.31
313.545	0.36
314.338	0.4
315.131	0.43
315.924	0.45
316.716	0.46
317.509	0.43
318.302	0.4
319.094	0.38
319.886	0.35
320.679	0.34
321.471	0.33
322.263	0.32
323.055	0.32
323.847	0.3
324.639	0.29
325.431	0.28
326.223	0.29
327.015	0.29
327.806	0.29
328.598	0.3
329.389	0.32
330.181	0.33
330.972	0.35
331.763	0.39
332.555	0.43
333.346	0.44
334.137	0.42
334.928	0.39
335.719	0.35
336.51	0.32
337.3	0.3
338.091	0.3
338.882	0.3
339.672	0.29
340.463	0.29
341.253	0.28
342.043	0.27
342.834	0.27
343.624	0.25
344.414	0.27
345.204	0.29
345.994	0.27
346.784	0.26
347.574	0.24
348.363	0.26
349.153	0.29
349.943	0.29
350.732	0.29
351.521	0.3
352.311	0.3
353.1	0.31
353.889	0.31
354.678	0.32
355.468	0.32
356.257	0.34
357.045	0.36
357.834	0.37
358.623	0.4
359.412	0.45
360.2	0.48
360.989	0.47
361.777	0.45
362.566	0.43
363.354	0.42
364.142	0.43
364.931	0.42
365.719	0.42
366.507	0.42
367.295	0.42
368.083	0.42
368.87	0.44
369.658	0.46
370.446	0.47
371.233	0.48
372.021	0.48
372.808	0.49
373.596	0.53
374.383	0.57
375.17	0.6
375.957	0.62
376.745	0.65
377.532	0.67
378.318	0.68
379.105	0.7
379.892	0.71
380.679	0.71
381.465	0.69
382.252	0.69
383.038	0.7
383.825	0.7
384.611	0.69
385.397	0.7
386.184	0.7
386.97	0.72
387.756	0.74
388.542	0.77
389.328	0.8
390.113	0.83
390.899	0.83
391.685	0.83
392.47	0.83
393.256	0.86
394.041	0.91
394.827	0.92
395.612	0.96
396.397	1.02
397.182	1.1
397.967	1.15
398.752	1.2
399.537	1.25
400.322	1.31
401.107	1.4
401.891	1.49
402.676	1.56
403.461	1.62
404.245	1.64
405.029	1.68
405.814	1.78
406.598	1.93
407.382	2.12
408.166	2.34
408.95	2.57
409.734	2.76
410.518	2.89
411.302	3.09
412.086	3.44
412.869	3.86
413.653	4.3
414.436	4.77
415.22	5.29
416.003	5.84
416.786	6.51
417.569	7.34
418.353	8.37
419.136	9.54
419.919	11.07
420.701	13
421.484	15.05
422.267	17.28
423.05	20.11
423.832	23.51
424.615	26.71
425.397	29.71
426.18	32.96
426.962	36.6
427.744	40.32
428.526	44.03
429.308	47.6
430.09	50.82
430.872	53.82
431.654	56.74
432.436	59.56
433.217	62.24
433.999	64.69
434.781	66.98
435.562	69.35
436.343	71.65
437.125	73.91
437.906	76
438.687	77.75
439.468	79.22
440.249	80.48
441.03	81.46
441.811	82.24
442.592	82.85
443.372	83.59
444.153	84.44
444.934	85.43
445.714	86.48
446.494	87.63
447.275	88.75
448.055	89.64
448.835	90.57
449.615	91.54
450.395	92.3
451.175	92.8
451.955	93.07
452.735	93.21
453.515	93.15
454.294	92.97
455.074	92.94
455.853	92.89
456.633	92.92
457.412	93.09
458.191	93.48
458.971	93.94
459.75	94.37
460.529	94.67
461.308	94.6
462.087	94.24
462.865	93.63
463.644	92.91
464.423	92.07
465.201	91
465.98	89.98
466.758	88.84
467.537	87.75
468.315	86.9
469.093	86.15
469.871	85.35
470.649	84.59
471.427	84
472.205	83.29
472.983	82.59
473.761	82.16
474.538	81.56
475.316	80.79
476.093	79.95
476.871	79.04
477.648	78.13
478.426	76.93
479.203	75.69
479.98	74.38
480.757	72.89
481.534	71.39
482.311	69.59
483.088	67.39
483.864	65.18
484.641	63.72
485.418	62.04
486.194	59.66
486.971	56.35
487.747	53.58
488.523	51.61
489.3	49.91
490.076	47.91
490.852	45.64
491.628	43.55
492.404	42.12
493.179	41.13
493.955	40.08
494.731	38.76
495.506	37.65
496.282	36.57
497.057	35.45
497.833	34.43
498.608	33.4
499.383	32.32
500.159	31.18
500.934	29.98
501.709	28.66
502.483	27.38
503.258	26.11
504.033	24.81
504.808	23.59
505.582	22.4
506.357	21.12
507.131	19.92
507.906	18.77
508.68	17.65
509.454	16.61
510.228	15.64
511.002	14.67
511.776	13.73
512.55	12.85
513.324	12.07
514.098	11.38
514.872	10.72
515.645	10.07
516.419	9.49
517.192	8.98
517.966	8.5
518.739	8.06
519.512	7.71
520.285	7.41
521.058	7.11
521.831	6.8
522.604	6.5
523.377	6.21
524.15	5.92
524.923	5.6
525.695	5.27
526.468	4.98
527.24	4.71
528.012	4.39
528.785	4.03
529.557	3.8
530.329	3.61
531.101	3.41
531.873	3.16
532.645	2.91
533.417	2.69
534.189	2.53
534.96	2.43
535.732	2.32
536.503	2.16
537.275	2.04
538.046	1.96
538.818	1.88
539.589	1.79
540.36	1.68
541.131	1.55
541.902	1.45
542.673	1.38
543.444	1.32
544.214	1.24
544.985	1.18
545.756	1.1
546.526	1.02
547.297	0.94
548.067	0.88
548.837	0.84
549.608	0.8
550.378	0.76
551.148	0.71
551.918	0.67
552.688	0.63
553.457	0.6
554.227	0.58
554.997	0.57
555.766	0.56
556.536	0.55
557.305	0.55
558.075	0.55
558.844	0.55
559.613	0.56
560.382	0.57
561.151	0.59
561.92	0.61
562.689	0.63
563.458	0.66
564.227	0.71
564.995	0.74
565.764	0.78
566.532	0.81
567.301	0.83
568.069	0.85
568.837	0.85
569.606	0.82
570.374	0.77
571.142	0.7
571.91	0.63
572.678	0.55
573.445	0.49
574.213	0.45
574.981	0.4
575.748	0.36
576.516	0.33
577.283	0.31
578.05	0.29
578.818	0.28
579.585	0.27
580.352	0.26
581.119	0.25
581.886	0.24
582.653	0.23
583.419	0.23
584.186	0.22
584.953	0.22
585.719	0.22
586.486	0.22
587.252	0.22
588.018	0.22
588.785	0.21
589.551	0.21
590.317	0.21
591.083	0.22
591.849	0.22
592.615	0.23
593.38	0.23
594.146	0.23
594.912	0.23
595.677	0.23
596.443	0.23
597.208	0.22
597.973	0.21
598.738	0.21
599.504	0.22
600.269	0.23
601.034	0.22
601.798	0.21
602.563	0.21
603.328	0.19
604.093	0.17
604.857	0.16
605.622	0.15
606.386	0.16
607.151	0.17
607.915	0.17
608.679	0.17
609.443	0.16
610.207	0.15
610.971	0.15
611.735	0.15
612.499	0.17
613.262	0.17
614.026	0.18
614.79	0.18
615.553	0.19
616.316	0.19
617.08	0.19
617.843	0.19
618.606	0.2
619.369	0.2
620.132	0.21
620.895	0.22
621.658	0.23
622.421	0.25
623.183	0.26
623.946	0.27
624.709	0.29
625.471	0.3
626.233	0.3
626.996	0.3
627.758	0.29
628.52	0.29
629.282	0.28
630.044	0.28
630.806	0.26
631.568	0.25
632.329	0.24
633.091	0.23
633.853	0.21
634.614	0.2
635.376	0.19
636.137	0.18
636.898	0.18
637.659	0.18
638.42	0.18
639.181	0.18
639.942	0.18
640.703	0.18
641.464	0.18
642.225	0.18
642.985	0.18
643.746	0.19
644.506	0.19
645.267	0.19
646.027	0.19
646.787	0.19
647.547	0.2
648.307	0.2
649.067	0.21
649.827	0.22
650.587	0.23
651.347	0.23
652.106	0.25
652.866	0.26
653.626	0.28
654.385	0.29
655.144	0.31
655.904	0.31
656.663	0.3
657.422	0.28
658.181	0.26
658.94	0.23
659.699	0.19
660.458	0.17
661.216	0.17
661.975	0.17
662.733	0.17
663.492	0.17
664.25	0.17
665.009	0.17
665.767	0.16
666.525	0.16
667.283	0.16
668.041	0.15
668.799	0.15
669.557	0.14
670.314	0.14
671.072	0.14
671.83	0.15
672.587	0.15
673.345	0.15
674.102	0.15
674.859	0.15
675.616	0.15
676.374	0.16
677.131	0.16
677.888	0.16
678.644	0.16
679.401	0.15
680.158	0.14
680.914	0.12
681.671	0.12
682.428	0.13
683.184	0.14
683.94	0.15
684.696	0.15
685.453	0.16
686.209	0.16
686.965	0.16
687.721	0.16
688.476	0.15
689.232	0.16
689.988	0.16
690.743	0.16
691.499	0.16
692.254	0.16
693.01	0.17
693.765	0.17
694.52	0.18
695.275	0.18
696.03	0.17
696.785	0.17
697.54	0.16
698.295	0.14
699.049	0.11
699.804	0.1
700.559	0.11
701.313	0.13
702.067	0.15
702.822	0.17
703.576	0.18
704.33	0.19
705.084	0.19
705.838	0.2
706.592	0.2
707.346	0.2
708.099	0.2
708.853	0.21
709.607	0.21
710.36	0.22
711.113	0.23
711.867	0.24
712.62	0.25
713.373	0.28
714.126	0.3
714.879	0.32
715.632	0.34
716.385	0.35
717.138	0.36
717.89	0.37
718.643	0.38
719.396	0.38
720.148	0.38
720.9	0.38
721.653	0.36
722.405	0.35
723.157	0.34
723.909	0.33
724.661	0.32
725.413	0.31
726.165	0.3
726.916	0.29
727.668	0.28
728.419	0.27
729.171	0.26
729.922	0.26
730.673	0.26
731.425	0.26
732.176	0.26
732.927	0.25
733.678	0.25
734.429	0.25
735.18	0.26
735.93	0.27
736.681	0.28
737.431	0.29
738.182	0.3
738.932	0.3
739.683	0.3
740.433	0.3
741.183	0.31
741.933	0.32
742.683	0.34
743.433	0.36
744.183	0.38
744.933	0.39
745.682	0.4
746.432	0.41
747.181	0.43
747.931	0.44
748.68	0.46
749.429	0.47
750.179	0.49
750.928	0.51
751.677	0.54
752.426	0.58
753.174	0.61
753.923	0.65
754.672	0.69
755.42	0.73
756.169	0.79
756.917	0.85
757.666	0.9
758.414	0.97
759.162	1.03
759.91	1.08
760.658	1.14
761.406	1.19
762.154	1.25
762.902	1.29
763.65	1.3
764.397	1.29
765.145	1.31
765.892	1.34
766.64	1.39
767.387	1.42
768.134	1.44
768.881	1.48
769.628	1.49
770.375	1.49
771.122	1.49
771.869	1.49
772.616	1.49
773.362	1.51
774.109	1.52
774.855	1.53
775.602	1.54
776.348	1.56
777.094	1.57
777.841	1.58
778.587	1.61
779.333	1.62
780.078	1.65
780.824	1.69
781.57	1.73
782.316	1.8
783.061	1.87
783.807	1.93
784.552	2
785.297	2.09
786.043	2.18
786.788	2.27
787.533	2.38
788.278	2.46
789.023	2.54
789.768	2.63
790.512	2.81
791.257	3.05
792.002	3.31
792.746	3.58
793.491	3.9
794.235	4.26
794.979	4.66
795.723	5.1
796.467	5.59
797.211	6.15
797.955	6.83
798.699	7.74
799.443	8.8
800.187	10.01
800.93	11.48
801.674	13.32
802.417	15.58
803.16	18.32
803.904	21.62
804.647	25.49
805.39	30.09
806.133	35.41
806.876	41.37
807.619	46.91
808.361	51.78
809.104	55.32
809.847	57.18
810.589	57.37
811.332	55.52
812.074	52.73
812.816	49.42
813.558	45.74
814.301	42.14
815.043	38.65
815.784	35.86
816.526	33.48
817.268	31.45
818.01	29.62
818.751	28.17
819.493	27.07
820.234	26.01
820.976	25.19
821.717	24.53
822.458	23.79
823.199	23.08
823.94	25.65
824.681	23.15
825.422	23.38
826.163	23.62
826.903	23.98
827.644	24.38
828.385	24.74
829.125	25.17
829.865	25.7
830.606	26.55
831.346	27.73
832.086	29
832.826	30.33
833.566	31.83
834.306	33.67
835.046	35.4
835.785	36.28
836.525	37.68
837.264	39.71
838.004	42.09
838.743	44.48
839.482	47.16
840.222	50.36
840.961	53.84
841.7	56.09
842.439	58.04
843.177	60.3
843.916	63.2
844.655	65.93
845.394	68.33
846.132	70.54
846.87	72.32
847.609	74.08
848.347	75.48
849.085	76.44
849.823	77.01
850.561	77.31
851.299	77.38
852.037	77.08
852.775	76.72
853.513	76.6
854.25	76.14
854.988	75.3
855.725	74.64
856.462	74.16
857.2	74.04
857.937	73.65
858.674	73.39
859.411	73.35
860.148	72.98
860.885	72.77
861.622	72.49
862.358	72.76
863.095	72.75
863.831	72.74
864.568	72.91
865.304	73.44
866.04	73.96
866.776	74.34
867.513	74.9
868.249	75.58
868.984	76.21
869.72	76.57
870.456	76.89
871.192	77.5
871.927	78.3
872.663	78.76
873.398	79
874.134	78.97
874.869	78.68
875.604	78.17
876.339	77.83
877.074	77.21
877.809	76.35
878.544	75.46
879.278	74.34
880.013	73.33
880.748	72.02
881.482	70.47
882.217	69.68
882.951	69.42
883.685	67.45
884.419	66.84
885.153	65.1
885.887	63.32
886.621	61.34
887.355	59.63
888.089	58.09
888.822	56.44
889.556	54.97
890.289	53.56
891.023	52.27
891.756	50.84
892.489	49.42
893.222	48.34
893.955	47.51
894.688	46.54
895.421	45.65
896.154	45.18
896.887	44.76
897.619	44.23
898.352	43.52
899.084	43.04
899.817	42.78
900.549	42.52
901.281	42.27
902.013	42.17
902.745	41.92
903.477	41.85
904.209	41.54
904.941	41.39
905.673	41.7
906.404	42.04
907.136	42.45
907.867	42.89
908.599	43.59
909.33	44.11
910.061	44.8
910.792	45.48
911.523	46.02
912.254	46.73
912.985	47.65
913.716	48.67
914.446	49.53
915.177	50.6
915.908	51.46
916.638	52.08
917.368	52.88
918.099	53.84
918.829	55.3
919.559	56.84
920.289	58.35
921.019	60.04
921.748	61.35
922.478	62.71
923.208	64.38
923.937	65.97
924.667	67.68
925.396	69.59
926.126	71.47
926.855	73.07
927.584	74.64
928.313	76.42
929.042	77.92
929.771	79.35
930.5	80.68
931.228	81.79
931.957	82.98
932.686	83.89
933.414	84.47
934.142	84.84
934.871	85.36
935.599	85.95
936.327	86.04
937.055	86.47
937.783	86.64
938.511	86.55
939.239	85.78
939.966	84.71
940.694	83.83
941.421	82.82
942.149	81.95
942.876	81.2
943.603	80.24
944.331	79.28
945.058	78.28
945.785	77.44
946.512	76.72
947.239	75.92
947.965	75.29
948.692	74.63
949.418	73.84
950.145	72.95
950.871	71.97
951.598	71.51
952.324	71.02
953.05	70.61
953.776	70.31
954.502	69.84
955.228	69.4
955.954	69.05
956.68	68.74
957.405	68.53
958.131	68.55
958.856	68.44
959.582	68.55
960.307	68.56
961.032	68.58
961.757	68.87
962.482	69.06
963.207	69.15
963.932	69.39
964.657	69.72
965.381	70.01
966.106	70.46
966.831	70.92
967.555	71.47
968.279	72.01
969.004	72.22
969.728	72.67
970.452	73.39
971.176	73.97
971.9	74.67
972.624	75.56
973.347	76.34
974.071	76.92
974.794	77.69
975.518	78.38
976.241	79.29
976.965	80.24
977.688	80.98
978.411	81.91
979.134	82.57
979.857	83.15
980.58	83.72
981.303	83.79
982.025	83.85
982.748	83.81
983.471	83.99
984.193	84.37
984.915	84.45
985.638	84.87
986.36	85.02
987.082	84.9
987.804	85.21
988.526	85.6
989.248	91.87
989.969	-77.14
990.691	95.19
991.413	101.46
