Data from Transmission_12-15-59-048.txt Node
Date: Thu Aug 01 12:15:59 CEST 2019
User: Ocean Optics
Spectrometer: QEP02356
Trigger mode: 4
Integration Time (sec): 1.000000E-1
Scans to average: 100
Electric dark correction enabled: true
Nonlinearity correction enabled: true
Boxcar width: 0
XAxis mode: Wavelengths
Number of Pixels in Spectrum: 1044
>>>>>Begin Spectral Data<<<<<
194.596	75.53
195.4	75.28
196.203	66.57
197.007	128.61
197.81	17.01
198.613	17.36
199.417	17.27
200.22	17.53
201.023	17.48
201.826	17.11
202.629	16.65
203.432	16.95
204.235	16.42
205.038	16.3
205.84	16.36
206.643	16.71
207.445	18.04
208.248	19.22
209.05	20.15
209.853	20.1
210.655	19.55
211.457	19.48
212.259	19.18
213.061	19.29
213.863	19.07
214.665	18.77
215.467	18.48
216.269	17.51
217.07	16.27
217.872	14.76
218.674	14.19
219.475	13.57
220.277	12.5
221.078	11.02
221.879	10.02
222.68	9.17
223.481	9.07
224.283	8.8
225.084	8.17
225.884	7.26
226.685	6
227.486	4.97
228.287	3.14
229.087	1.85
229.888	1.58
230.688	2.29
231.489	2.91
232.289	3.29
233.089	4.18
233.89	3.98
234.69	3.3
235.49	3.34
236.29	3.6
237.09	3.56
237.89	3.65
238.689	3.66
239.489	3.37
240.289	2.96
241.088	2.45
241.888	1.88
242.687	1.39
243.486	1.26
244.286	1.69
245.085	2.12
245.884	1.94
246.683	1.23
247.482	0.72
248.281	0.7
249.08	0.97
249.878	1.28
250.677	1.67
251.476	1.65
252.274	1.21
253.073	1.02
253.871	1.29
254.67	1.57
255.468	1.6
256.266	1.57
257.064	1.45
257.862	1.26
258.66	1.09
259.458	0.79
260.256	0.51
261.054	0.46
261.851	0.72
262.649	0.98
263.446	1.02
264.244	1.14
265.041	1.24
265.839	1.17
266.636	1.05
267.433	0.93
268.23	0.92
269.027	0.96
269.824	1.03
270.621	1.04
271.418	0.98
272.215	0.92
273.011	0.85
273.808	0.84
274.604	0.95
275.401	1.07
276.197	1.1
276.994	1.09
277.79	1.1
278.586	1.15
279.382	1.17
280.178	1.18
280.974	1.14
281.77	1.09
282.566	1.08
283.361	1.06
284.157	1.09
284.953	1.06
285.748	0.99
286.544	1.02
287.339	1.15
288.134	1.35
288.93	1.5
289.725	1.81
290.52	2.43
291.315	3.02
292.11	2.99
292.905	2.57
293.699	2.35
294.494	2.38
295.289	2.45
296.083	2.45
296.878	2.28
297.672	2.05
298.467	1.99
299.261	2.15
300.055	2.35
300.849	2.5
301.643	2.67
302.437	2.91
303.231	3.27
304.025	3.64
304.819	3.87
305.612	4.05
306.406	4.14
307.2	4.18
307.993	4.21
308.786	4.26
309.58	4.39
310.373	4.6
311.166	5.02
311.959	5.68
312.752	6.5
313.545	7.78
314.338	9.2
315.131	10.34
315.924	11.19
316.716	11.71
317.509	11.83
318.302	11.73
319.094	11.5
319.886	11.22
320.679	11.14
321.471	11.35
322.263	11.79
323.055	12.45
323.847	13.39
324.639	14.62
325.431	16.06
326.223	17.79
327.015	19.42
327.806	20.53
328.598	21.28
329.389	21.38
330.181	21.12
330.972	20.92
331.763	20.87
332.555	21.2
333.346	21.85
334.137	23.11
334.928	24.92
335.719	27.22
336.51	30.05
337.3	33.32
338.091	36.84
338.882	39.95
339.672	42.59
340.463	44.48
341.253	45.45
342.043	45.79
342.834	45.97
343.624	45.94
344.414	46.04
345.204	46.29
345.994	46.87
346.784	47.88
347.574	49.21
348.363	50.86
349.153	52.72
349.943	54.74
350.732	56.3
351.521	57.44
352.311	58.07
353.1	58.1
353.889	58.04
354.678	57.85
355.468	57.52
356.257	57.55
357.045	57.78
357.834	58.46
358.623	59.44
359.412	60.69
360.2	62.24
360.989	64.01
361.777	65.92
362.566	68.02
363.354	70.08
364.142	72.62
364.931	75.08
365.719	77.51
366.507	79.76
367.295	81.76
368.083	83.49
368.87	84.98
369.658	86.28
370.446	87.37
371.233	88.35
372.021	89.36
372.808	90.21
373.596	90.84
374.383	91.49
375.17	92.15
375.957	92.87
376.745	93.54
377.532	93.87
378.318	94.36
379.105	94.49
379.892	94.52
380.679	94.75
381.465	94.79
382.252	94.74
383.038	94.41
383.825	94.13
384.611	93.81
385.397	93.47
386.184	93.08
386.97	92.91
387.756	92.88
388.542	93.1
389.328	93.41
390.113	93.82
390.899	94.41
391.685	95.18
392.47	95.71
393.256	96.14
394.041	96.41
394.827	96.6
395.612	96.54
396.397	96.41
397.182	96.04
397.967	95.77
398.752	95.68
399.537	95.63
400.322	95.53
401.107	95.48
401.891	95.53
402.676	95.61
403.461	95.6
404.245	95.61
405.029	95.56
405.814	95.37
406.598	95.15
407.382	95.13
408.166	94.93
408.95	94.69
409.734	94.36
410.518	94.07
411.302	93.65
412.086	92.87
412.869	91.81
413.653	90.46
414.436	88.93
415.22	87.42
416.003	86.1
416.786	84.93
417.569	83.91
418.353	83.09
419.136	82.63
419.919	82.4
420.701	82.31
421.484	82.28
422.267	82.17
423.05	81.96
423.832	81.44
424.615	80.64
425.397	79.68
426.18	78.54
426.962	77.21
427.744	75.8
428.526	74.52
429.308	73.44
430.09	72.75
430.872	72.34
431.654	72.02
432.436	71.86
433.217	71.68
433.999	71.39
434.781	70.7
435.562	69.42
436.343	67.69
437.125	65.57
437.906	63.17
438.687	60.69
439.468	58.22
440.249	55.84
441.03	53.63
441.811	51.66
442.592	49.89
443.372	48.13
444.153	46.43
444.934	44.89
445.714	43.45
446.494	42.07
447.275	40.72
448.055	39.29
448.835	37.74
449.615	36.06
450.395	34.4
451.175	32.8
451.955	31.2
452.735	29.79
453.515	28.64
454.294	27.53
455.074	26.48
455.853	25.58
456.633	24.66
457.412	23.76
458.191	22.84
458.971	21.86
459.75	20.82
460.529	19.85
461.308	18.97
462.087	17.84
462.865	16.58
463.644	15.45
464.423	14.35
465.201	13.33
465.98	12.49
466.758	11.72
467.537	11.04
468.315	10.49
469.093	9.96
469.871	9.42
470.649	8.92
471.427	8.41
472.205	7.88
472.983	7.33
473.761	6.77
474.538	6.26
475.316	5.7
476.093	5.12
476.871	4.6
477.648	4.14
478.426	3.74
479.203	3.38
479.98	3.08
480.757	2.8
481.534	2.56
482.311	2.36
483.088	2.16
483.864	1.98
484.641	1.86
485.418	1.78
486.194	1.7
486.971	1.55
487.747	1.39
488.523	1.27
489.3	1.17
490.076	1.06
490.852	0.92
491.628	0.76
492.404	0.66
493.179	0.6
493.955	0.56
494.731	0.51
495.506	0.45
496.282	0.4
497.057	0.35
497.833	0.32
498.608	0.3
499.383	0.28
500.159	0.27
500.934	0.26
501.709	0.26
502.483	0.25
503.258	0.24
504.033	0.23
504.808	0.23
505.582	0.22
506.357	0.22
507.131	0.22
507.906	0.22
508.68	0.22
509.454	0.21
510.228	0.22
511.002	0.23
511.776	0.24
512.55	0.25
513.324	0.26
514.098	0.28
514.872	0.29
515.645	0.3
516.419	0.31
517.192	0.3
517.966	0.28
518.739	0.25
519.512	0.23
520.285	0.21
521.058	0.2
521.831	0.19
522.604	0.18
523.377	0.17
524.15	0.15
524.923	0.14
525.695	0.12
526.468	0.11
527.24	0.1
528.012	0.1
528.785	0.08
529.557	0.07
530.329	0.07
531.101	0.09
531.873	0.09
532.645	0.1
533.417	0.09
534.189	0.08
534.96	0.09
535.732	0.1
536.503	0.11
537.275	0.11
538.046	0.11
538.818	0.13
539.589	0.14
540.36	0.15
541.131	0.16
541.902	0.16
542.673	0.17
543.444	0.19
544.214	0.21
544.985	0.23
545.756	0.25
546.526	0.25
547.297	0.24
548.067	0.23
548.837	0.22
549.608	0.22
550.378	0.21
551.148	0.2
551.918	0.18
552.688	0.17
553.457	0.16
554.227	0.15
554.997	0.15
555.766	0.15
556.536	0.15
557.305	0.15
558.075	0.15
558.844	0.15
559.613	0.16
560.382	0.16
561.151	0.16
561.92	0.16
562.689	0.17
563.458	0.18
564.227	0.19
564.995	0.2
565.764	0.2
566.532	0.21
567.301	0.22
568.069	0.24
568.837	0.26
569.606	0.28
570.374	0.29
571.142	0.31
571.91	0.31
572.678	0.31
573.445	0.3
574.213	0.3
574.981	0.3
575.748	0.28
576.516	0.27
577.283	0.27
578.05	0.26
578.818	0.26
579.585	0.26
580.352	0.25
581.119	0.25
581.886	0.25
582.653	0.25
583.419	0.26
584.186	0.26
584.953	0.27
585.719	0.28
586.486	0.29
587.252	0.3
588.018	0.31
588.785	0.32
589.551	0.33
590.317	0.33
591.083	0.33
591.849	0.32
592.615	0.31
593.38	0.29
594.146	0.27
594.912	0.24
595.677	0.22
596.443	0.2
597.208	0.17
597.973	0.15
598.738	0.15
599.504	0.14
600.269	0.14
601.034	0.13
601.798	0.13
602.563	0.12
603.328	0.11
604.093	0.1
604.857	0.09
605.622	0.09
606.386	0.09
607.151	0.09
607.915	0.1
608.679	0.1
609.443	0.09
610.207	0.08
610.971	0.08
611.735	0.09
612.499	0.1
613.262	0.1
614.026	0.11
614.79	0.11
615.553	0.11
616.316	0.12
617.08	0.12
617.843	0.12
618.606	0.13
619.369	0.13
620.132	0.14
620.895	0.15
621.658	0.17
622.421	0.18
623.183	0.21
623.946	0.23
624.709	0.27
625.471	0.31
626.233	0.36
626.996	0.4
627.758	0.45
628.52	0.47
629.282	0.48
630.044	0.45
630.806	0.41
631.568	0.36
632.329	0.31
633.091	0.26
633.853	0.23
634.614	0.2
635.376	0.18
636.137	0.17
636.898	0.15
637.659	0.15
638.42	0.14
639.181	0.14
639.942	0.13
640.703	0.13
641.464	0.13
642.225	0.13
642.985	0.12
643.746	0.12
644.506	0.12
645.267	0.12
646.027	0.12
646.787	0.12
647.547	0.12
648.307	0.12
649.067	0.12
649.827	0.12
650.587	0.12
651.347	0.12
652.106	0.11
652.866	0.12
653.626	0.12
654.385	0.12
655.144	0.13
655.904	0.13
656.663	0.13
657.422	0.13
658.181	0.13
658.94	0.12
659.699	0.11
660.458	0.11
661.216	0.11
661.975	0.12
662.733	0.13
663.492	0.14
664.25	0.15
665.009	0.15
665.767	0.16
666.525	0.16
667.283	0.16
668.041	0.16
668.799	0.17
669.557	0.17
670.314	0.17
671.072	0.18
671.83	0.19
672.587	0.19
673.345	0.2
674.102	0.2
674.859	0.2
675.616	0.21
676.374	0.21
677.131	0.21
677.888	0.2
678.644	0.19
679.401	0.18
680.158	0.17
680.914	0.15
681.671	0.15
682.428	0.16
683.184	0.15
683.94	0.16
684.696	0.15
685.453	0.15
686.209	0.15
686.965	0.15
687.721	0.15
688.476	0.15
689.232	0.15
689.988	0.15
690.743	0.15
691.499	0.15
692.254	0.15
693.01	0.15
693.765	0.16
694.52	0.16
695.275	0.16
696.03	0.16
696.785	0.15
697.54	0.15
698.295	0.13
699.049	0.11
699.804	0.1
700.559	0.11
701.313	0.12
702.067	0.14
702.822	0.16
703.576	0.17
704.33	0.17
705.084	0.18
705.838	0.18
706.592	0.18
707.346	0.18
708.099	0.18
708.853	0.18
709.607	0.18
710.36	0.18
711.113	0.19
711.867	0.19
712.62	0.19
713.373	0.2
714.126	0.21
714.879	0.22
715.632	0.23
716.385	0.23
717.138	0.24
717.89	0.26
718.643	0.28
719.396	0.3
720.148	0.32
720.9	0.34
721.653	0.35
722.405	0.36
723.157	0.38
723.909	0.38
724.661	0.39
725.413	0.4
726.165	0.4
726.916	0.4
727.668	0.4
728.419	0.4
729.171	0.4
729.922	0.4
730.673	0.4
731.425	0.41
732.176	0.41
732.927	0.41
733.678	0.41
734.429	0.41
735.18	0.42
735.93	0.44
736.681	0.46
737.431	0.47
738.182	0.48
738.932	0.48
739.683	0.47
740.433	0.48
741.183	0.49
741.933	0.51
742.683	0.53
743.433	0.55
744.183	0.57
744.933	0.58
745.682	0.59
746.432	0.61
747.181	0.62
747.931	0.62
748.68	0.63
749.429	0.64
750.179	0.65
750.928	0.67
751.677	0.69
752.426	0.7
753.174	0.73
753.923	0.74
754.672	0.76
755.42	0.78
756.169	0.8
756.917	0.82
757.666	0.85
758.414	0.86
759.162	0.89
759.91	0.9
760.658	0.93
761.406	0.95
762.154	0.98
762.902	1
763.65	1.01
764.397	0.99
765.145	1.01
765.892	1.07
766.64	1.16
767.387	1.24
768.134	1.32
768.881	1.41
769.628	1.49
770.375	1.58
771.122	1.65
771.869	1.72
772.616	1.81
773.362	1.92
774.109	2.02
774.855	2.13
775.602	2.25
776.348	2.37
777.094	2.5
777.841	2.64
778.587	2.78
779.333	2.93
780.078	3.1
780.824	3.29
781.57	3.52
782.316	3.76
783.061	4.04
783.807	4.31
784.552	4.6
785.297	4.92
786.043	5.28
786.788	5.67
787.533	6.08
788.278	6.52
789.023	6.99
789.768	7.48
790.512	8.05
791.257	8.73
792.002	9.5
792.746	10.26
793.491	11.16
794.235	12.12
794.979	13.17
795.723	14.26
796.467	15.47
797.211	16.72
797.955	18.01
798.699	19.44
799.443	21
800.187	22.6
800.93	24.19
801.674	25.91
802.417	27.65
803.16	29.44
803.904	31.2
804.647	32.82
805.39	34.46
806.133	36.03
806.876	37.38
807.619	38.46
808.361	39.46
809.104	40.29
809.847	40.89
810.589	41.33
811.332	41.57
812.074	41.76
812.816	41.75
813.558	41.61
814.301	41.43
815.043	41.17
815.784	41
816.526	40.72
817.268	40.39
818.01	40.06
818.751	39.72
819.493	39.42
820.234	39.17
820.976	38.89
821.717	38.59
822.458	38.28
823.199	38.06
823.94	42.06
824.681	37.62
825.422	37.72
826.163	37.49
826.903	37.34
827.644	37.12
828.385	36.96
829.125	37.01
829.865	36.94
830.606	36.93
831.346	36.96
832.086	36.94
832.826	36.93
833.566	36.91
834.306	37.05
835.046	37.18
835.785	37.23
836.525	37.18
837.264	37.35
838.004	37.48
838.743	37.67
839.482	37.96
840.222	38.2
840.961	38.29
841.7	38.51
842.439	38.8
843.177	39.12
843.916	39.59
844.655	40.04
845.394	40.41
846.132	40.89
846.87	41.49
847.609	42.04
848.347	42.67
849.085	43.41
849.823	43.96
850.561	44.6
851.299	45.35
852.037	46.19
852.775	47.15
853.513	48.09
854.25	49.06
854.988	50.01
855.725	51.12
856.462	52.37
857.2	53.66
857.937	55.04
858.674	56.42
859.411	58.02
860.148	59.49
860.885	61.05
861.622	62.55
862.358	64.31
863.095	66.08
863.831	67.9
864.568	69.72
865.304	71.63
866.04	73.41
866.776	75.41
867.513	77.29
868.249	79.29
868.984	81.15
869.72	82.88
870.456	84.4
871.192	85.92
871.927	87.36
872.663	88.51
873.398	89.57
874.134	90.67
874.869	91.23
875.604	91.69
876.339	91.94
877.074	92.07
877.809	91.78
878.544	91.48
879.278	90.9
880.013	90.5
880.748	89.78
881.482	88.7
882.217	88.27
882.951	88.21
883.685	85.99
884.419	85.4
885.153	83.79
885.887	82.12
886.621	80.35
887.355	78.73
888.089	77.1
888.822	75.41
889.556	73.83
890.289	72.16
891.023	70.52
891.756	69.02
892.489	67.61
893.222	66.12
893.955	64.71
894.688	63.19
895.421	62.01
896.154	61.56
896.887	60.97
897.619	60.12
898.352	59.14
899.084	58.18
899.817	57.42
900.549	56.55
901.281	55.74
902.013	55.05
902.745	54.27
903.477	53.56
904.209	52.87
904.941	52.27
905.673	52.1
906.404	51.9
907.136	51.6
907.867	51.23
908.599	50.86
909.33	50.58
910.061	50.26
910.792	50.05
911.523	49.79
912.254	49.62
912.985	49.45
913.716	49.25
914.446	48.9
915.177	48.71
915.908	48.56
916.638	48.53
917.368	48.59
918.099	48.56
918.829	48.54
919.559	48.63
920.289	48.6
921.019	48.56
921.748	48.51
922.478	48.5
923.208	48.61
923.937	48.72
924.667	48.85
925.396	48.93
926.126	49.01
926.855	49.06
927.584	49.15
928.313	49.34
929.042	49.43
929.771	49.43
930.5	49.53
931.228	49.41
931.957	49.59
932.686	49.73
933.414	49.88
934.142	50
934.871	50.1
935.599	50.26
936.327	50.43
937.055	50.58
937.783	50.79
938.511	50.86
939.239	51.03
939.966	51.22
940.694	51.4
941.421	51.61
942.149	51.8
942.876	52.1
943.603	52.39
944.331	52.38
945.058	52.58
945.785	52.76
946.512	53.1
947.239	53.42
947.965	53.66
948.692	53.95
949.418	54.19
950.145	54.35
950.871	54.65
951.598	54.86
952.324	55.23
953.05	55.63
953.776	56.04
954.502	56.38
955.228	56.84
955.954	57.26
956.68	57.8
957.405	58.29
958.131	58.91
958.856	59.35
959.582	59.91
960.307	60.54
961.032	61.2
961.757	61.69
962.482	62.39
963.207	63.12
963.932	63.65
964.657	64.5
965.381	65.19
966.106	65.89
966.831	66.59
967.555	67.33
968.279	68.18
969.004	68.74
969.728	69.51
970.452	70.33
971.176	71.16
971.9	71.98
972.624	72.7
973.347	73.46
974.071	74.31
974.794	75.19
975.518	76.11
976.241	77.06
976.965	77.9
977.688	78.8
978.411	79.59
979.134	80.36
979.857	80.91
980.58	81.49
981.303	81.74
982.025	82.01
982.748	82.31
983.471	82.79
984.193	83.24
984.915	83.84
985.638	84.47
986.36	84.95
987.082	85.64
987.804	86.13
988.526	86.67
989.248	85.2
989.969	89.43
990.691	61.19
991.413	96.62
